"Frequency Response"
"Axis-1: 1 - 1000Hz"
"Index","Frequency","Gain","Phase","Frequency","Gain","Phase"
"","Hz","dB","deg","Hz","dB","deg"
0,1.000000,0.227222,-12.440258,1.000000,13.333705,-103.063107
1,2.000000,-0.271560,-14.379733,2.000000,11.827231,-90.126444
2,3.000000,-0.675696,-14.378694,3.000000,11.292359,-80.060009
3,4.000000,-0.907896,-13.990063,4.000000,11.078959,-73.942191
4,5.000000,-1.035583,-13.640909,5.000000,10.991336,-70.355124
5,6.000000,-1.112802,-13.392547,6.000000,10.941785,-68.112022
6,7.000000,-1.162149,-13.183136,7.000000,10.928646,-66.560550
7,8.000000,-1.186343,-13.059546,8.000000,10.930338,-65.747360
8,9.000000,-1.199200,-13.033970,9.000000,10.911206,-65.413107
9,10.000000,-1.202650,-13.012544,10.000000,10.913073,-65.287649
10,15.000000,-1.139985,-14.128232,15.000000,10.523202,-69.194386
11,20.000000,-1.010079,-16.362044,20.000000,9.738947,-76.182772
12,25.000000,-0.915553,-19.374332,25.000000,8.594781,-82.544319
13,30.000000,-0.890819,-23.412283,30.000000,7.119529,-87.817212
14,35.000000,-0.981385,-27.288660,35.000000,5.791916,-90.556729
15,40.000000,-1.106778,-32.414539,40.000000,4.289533,-93.860217
16,45.000000,-1.597834,-37.767156,45.000000,2.640835,-93.873189
17,50.000000,-2.659482,-40.629054,50.000000,1.061505,-88.004289
18,55.000000,-2.897264,-35.916061,55.000000,1.626926,-80.942842
19,60.000000,-2.143124,-38.538538,60.000000,1.966537,-89.922516
20,65.000000,-2.852975,-49.677240,65.000000,-0.536330,-95.464741
21,70.000000,-3.519780,-46.014064,70.000000,-0.666933,-87.798620
22,75.000000,-3.347453,-46.933464,75.000000,-0.620643,-89.791248
23,80.000000,-4.182764,-51.061774,80.000000,-2.001207,-89.214644
24,85.000000,-3.305608,-49.021229,85.000000,-0.869841,-92.100606
25,90.000000,-4.051140,-59.709711,90.000000,-2.863258,-98.098733
26,95.000000,-4.790098,-61.446012,95.000000,-3.717466,-96.373267
27,100.000000,-5.754284,-64.212189,100.000000,-4.877703,-95.110648
28,105.000000,-6.961774,-64.399807,105.000000,-6.065743,-91.052297
29,110.000000,-8.643331,-56.917485,110.000000,-7.294869,-78.126861
30,115.000000,-8.286176,-37.597340,115.000000,-5.593786,-56.285580
31,120.000000,-5.233891,-31.191260,120.000000,-0.834237,-59.256013
32,125.000000,-3.352242,-45.531436,125.000000,-0.425419,-88.337934
33,130.000000,-3.992206,-59.715139,130.000000,-2.811003,-98.381133
34,135.000000,-4.393369,-63.462008,135.000000,-3.556777,-99.905548
35,140.000000,-5.600813,-68.974121,140.000000,-5.137520,-100.082245
36,145.000000,-5.569870,-69.865379,145.000000,-5.183031,-100.994296
37,150.000000,-6.249474,-72.007551,150.000000,-5.963659,-100.606540
38,155.000000,-6.425364,-74.132870,155.000000,-6.278702,-101.964049
39,160.000000,-7.038945,-74.353263,160.000000,-6.852042,-100.299049
40,165.000000,-7.404725,-75.031928,165.000000,-7.234388,-99.868950
41,170.000000,-7.194020,-77.199407,170.000000,-7.182051,-102.448073
42,175.000000,-7.596215,-80.288764,175.000000,-7.738198,-104.142920
43,180.000000,-8.461637,-80.321590,180.000000,-8.528768,-101.991763
44,185.000000,-8.281574,-81.651798,185.000000,-8.437794,-103.646923
45,190.000000,-8.928797,-83.685191,190.000000,-9.137704,-103.996066
46,195.000000,-9.074272,-83.725738,195.000000,-9.273178,-103.710391
47,200.000000,-9.560017,-84.676668,200.000000,-9.767508,-103.545670
48,205.000000,-10.184851,-86.207930,205.000000,-10.416906,-103.710469
49,210.000000,-10.290422,-86.577051,210.000000,-10.531220,-103.850743
50,215.000000,-10.701512,-86.413291,215.000000,-10.907562,-102.930049
51,220.000000,-11.098604,-87.175416,220.000000,-11.311267,-102.934129
52,225.000000,-11.721285,-87.712472,225.000000,-11.918975,-102.387760
53,230.000000,-12.148927,-87.654729,230.000000,-12.322434,-101.649441
54,235.000000,-12.653551,-86.932013,235.000000,-12.779147,-100.188363
55,240.000000,-13.113195,-86.252842,240.000000,-13.198969,-98.864063
56,245.000000,-13.727964,-85.651698,245.000000,-13.776187,-97.431151
57,250.000000,-14.449421,-84.224488,250.000000,-14.439703,-95.102247
58,255.000000,-15.262075,-80.522068,255.000000,-15.142965,-90.457430
59,260.000000,-15.523155,-73.153428,260.000000,-15.212588,-82.713484
60,265.000000,-15.965049,-66.004779,265.000000,-15.487642,-74.839835
61,270.000000,-15.731884,-59.137443,270.000000,-15.071902,-67.844883
62,275.000000,-14.978743,-56.315173,275.000000,-14.190608,-65.662696
63,280.000000,-14.959838,-52.023208,280.000000,-14.055677,-61.013877
64,285.000000,-14.327097,-44.594928,285.000000,-13.153844,-53.478027
65,290.000000,-13.308158,-41.797012,290.000000,-11.908676,-51.537456
66,295.000000,-12.417778,-42.410311,295.000000,-10.892303,-53.506295
67,300.000000,-11.871567,-39.592375,300.000000,-10.145853,-51.023088
68,305.000000,-10.998268,-34.516669,305.000000,-8.886483,-46.269985
69,310.000000,-8.596912,-35.817579,310.000000,-5.883518,-53.110552
70,315.000000,-7.675234,-44.328521,315.000000,-5.305980,-66.621733
71,320.000000,-6.980457,-49.613448,320.000000,-4.906285,-75.270048
72,325.000000,-6.316106,-56.033143,325.000000,-4.726761,-84.802736
73,330.000000,-6.436360,-64.126646,330.000000,-5.527582,-92.561197
74,335.000000,-6.118233,-69.192445,335.000000,-5.627637,-98.468664
75,340.000000,-6.406719,-75.863445,340.000000,-6.385465,-103.568021
76,345.000000,-6.493204,-81.230862,345.000000,-6.826809,-107.997193
77,350.000000,-7.481440,-85.883453,350.000000,-7.965534,-109.377816
78,355.000000,-7.468154,-84.964884,355.000000,-7.901161,-108.612432
79,360.000000,-7.704946,-88.377447,360.000000,-8.297956,-110.991890
80,365.000000,-7.868144,-91.777729,365.000000,-8.617965,-113.529685
81,370.000000,-8.060678,-91.373929,370.000000,-8.761975,-112.754815
82,375.000000,-8.419328,-94.690362,375.000000,-9.232588,-114.828309
83,380.000000,-9.240223,-96.163406,380.000000,-10.007459,-114.471708
84,385.000000,-9.053704,-98.001992,385.000000,-9.926270,-116.412207
85,390.000000,-9.174742,-97.207107,390.000000,-9.996065,-115.499806
86,395.000000,-8.979603,-99.489592,395.000000,-9.926952,-117.822305
87,400.000000,-9.788439,-99.992139,400.000000,-10.642904,-116.802943
88,405.000000,-10.232039,-103.228098,405.000000,-11.151191,-118.870106
89,410.000000,-10.099005,-102.774437,410.000000,-11.019209,-118.692063
90,415.000000,-10.227682,-103.320085,415.000000,-11.150798,-118.956741
91,420.000000,-10.186157,-103.303053,420.000000,-11.114231,-119.008511
92,425.000000,-10.600975,-105.974427,425.000000,-11.568331,-120.676538
93,430.000000,-10.561962,-105.379330,430.000000,-11.513958,-120.220051
94,435.000000,-10.496609,-105.303065,435.000000,-11.454714,-120.253301
95,440.000000,-11.054205,-107.826364,440.000000,-12.023076,-121.624052
96,445.000000,-10.780785,-108.841755,445.000000,-11.819645,-122.888670
97,450.000000,-10.954872,-111.267895,450.000000,-12.046570,-124.731617
98,455.000000,-11.731369,-110.682515,455.000000,-12.700919,-123.202571
99,460.000000,-11.242711,-113.422855,460.000000,-12.358730,-126.200283
100,465.000000,-11.672135,-111.803721,465.000000,-12.682105,-124.254743
101,470.000000,-11.690295,-118.454581,470.000000,-12.882234,-129.963127
102,475.000000,-11.405377,-110.549753,475.000000,-12.413195,-123.510179
103,480.000000,-12.370120,-116.214682,480.000000,-13.410214,-127.259735
104,485.000000,-12.338179,-123.672892,485.000000,-13.564518,-133.727483
105,490.000000,-11.639018,-118.680217,490.000000,-12.844417,-130.214569
106,495.000000,-11.929608,-121.697164,495.000000,-13.168903,-132.463871
107,500.000000,-12.054494,-121.907239,500.000000,-13.280511,-132.510463
108,505.000000,-12.027513,-121.781806,505.000000,-13.254440,-132.431914
109,510.000000,-12.244193,-127.872209,510.000000,-13.578007,-137.389392
110,515.000000,-12.235526,-126.636273,515.000000,-13.543785,-136.350959
111,520.000000,-13.027586,-129.955852,520.000000,-14.287047,-138.465324
112,525.000000,-13.063833,-126.196487,525.000000,-14.242739,-135.204897
113,530.000000,-12.965713,-131.895811,530.000000,-14.271278,-140.172439
114,535.000000,-12.977879,-132.242678,535.000000,-14.288122,-140.457833
115,540.000000,-13.530369,-132.225628,540.000000,-14.760520,-140.005266
116,545.000000,-13.182316,-136.029993,545.000000,-14.529212,-143.519188
117,550.000000,-13.576516,-133.838702,550.000000,-14.828380,-141.356000
118,555.000000,-13.617535,-140.745108,555.000000,-14.973274,-147.225963
119,560.000000,-13.584290,-135.029001,560.000000,-14.855226,-142.371021
120,565.000000,-13.992710,-142.035454,565.000000,-15.311306,-148.093949
121,570.000000,-13.819521,-141.669489,570.000000,-15.158445,-147.886512
122,575.000000,-14.047123,-142.088772,575.000000,-15.358545,-148.107069
123,580.000000,-14.254488,-142.620106,580.000000,-15.543284,-148.440653
124,585.000000,-14.445217,-147.119671,585.000000,-15.762410,-152.192831
125,590.000000,-14.447070,-144.450968,590.000000,-15.732045,-149.904161
126,595.000000,-14.742689,-148.359246,595.000000,-16.031352,-153.111224
127,600.000000,-14.787256,-149.222065,600.000000,-16.078840,-153.831789
128,605.000000,-14.858248,-149.437318,605.000000,-16.142101,-153.984560
129,610.000000,-15.117574,-154.566323,610.000000,-16.413334,-158.287584
130,615.000000,-15.259490,-151.392027,615.000000,-16.507253,-155.496888
131,620.000000,-15.373500,-155.631258,620.000000,-16.642445,-159.113067
132,625.000000,-15.474994,-155.900928,625.000000,-16.732169,-159.311025
133,630.000000,-15.759696,-156.207303,630.000000,-16.980947,-159.481301
134,635.000000,-15.936170,-156.421018,635.000000,-17.135810,-159.609840
135,640.000000,-15.896704,-157.522460,640.000000,-17.109429,-160.579391
136,645.000000,-16.211326,-158.160393,645.000000,-17.387626,-161.040963
137,650.000000,-16.465638,-161.941101,650.000000,-17.632375,-164.274440
138,655.000000,-16.210084,-162.606650,655.000000,-17.413154,-164.914205
139,660.000000,-16.975286,-159.576426,660.000000,-18.066241,-162.075166
140,665.000000,-16.972848,-163.121879,665.000000,-18.082994,-165.196649
141,670.000000,-17.312266,-162.823230,670.000000,-18.380783,-164.862474
142,675.000000,-17.243027,-164.776116,675.000000,-18.328471,-166.600235
143,680.000000,-17.835766,-164.956307,680.000000,-18.854120,-166.653419
144,685.000000,-17.750868,-166.258948,685.000000,-18.783704,-167.824681
145,690.000000,-18.495681,-164.277321,690.000000,-19.440602,-165.933444
146,695.000000,-18.387202,-164.325957,695.000000,-19.343601,-165.995632
147,700.000000,-18.920728,-165.888314,700.000000,-19.828415,-167.313276
148,705.000000,-19.148545,-163.530534,705.000000,-20.025343,-165.150377
149,710.000000,-19.698714,-161.404174,710.000000,-20.515668,-163.126224
150,715.000000,-19.479897,-157.822898,715.000000,-20.300225,-159.912632
151,720.000000,-20.030119,-149.947684,720.000000,-20.757930,-152.578163
152,725.000000,-19.560495,-151.143019,725.000000,-20.335343,-153.804488
153,730.000000,-19.074621,-139.035350,730.000000,-19.794824,-142.884303
154,735.000000,-18.098314,-140.895265,735.000000,-18.921423,-144.990432
155,740.000000,-16.831599,-140.362502,740.000000,-17.774768,-145.090192
156,745.000000,-15.597539,-141.665753,745.000000,-16.696663,-146.871133
157,750.000000,-14.766135,-147.499491,750.000000,-16.042086,-152.360900
158,755.000000,-14.046796,-157.347644,755.000000,-15.525643,-161.043874
159,760.000000,-14.053293,-169.935496,760.000000,-15.606148,-171.596268
160,765.000000,-14.675912,-184.672266,765.000000,-16.143463,-183.944679
161,770.000000,-16.797050,-189.688401,770.000000,-17.956378,-188.468304
162,775.000000,-18.991518,-186.205083,775.000000,-19.911424,-185.579427
163,780.000000,-19.637136,-165.762384,780.000000,-20.475738,-167.096553
164,785.000000,-17.281110,-159.573981,785.000000,-18.336264,-161.996467
165,790.000000,-16.105935,-165.490303,790.000000,-17.336811,-167.441269
166,795.000000,-16.091813,-179.828471,795.000000,-17.357146,-179.851724
167,800.000000,-17.163481,-182.061016,800.000000,-18.290457,-181.810136
168,805.000000,-17.325574,-178.730123,805.000000,-18.433353,-178.882199
169,810.000000,-17.110964,-186.338165,810.000000,-18.239245,-185.563475
170,815.000000,-17.927156,-192.253211,815.000000,-18.945446,-190.880106
171,820.000000,-19.226525,-185.838796,820.000000,-20.123606,-185.264152
172,825.000000,-18.427287,-185.349948,825.000000,-19.406862,-184.777966
173,830.000000,-18.661338,-188.076500,830.000000,-19.611712,-187.234690
174,835.000000,-18.975694,-192.004064,835.000000,-19.884521,-190.796382
175,840.000000,-19.301753,-192.651261,840.000000,-20.176812,-191.421582
176,845.000000,-20.325736,-191.644643,845.000000,-21.110127,-190.626875
177,850.000000,-20.656049,-179.804867,850.000000,-21.426264,-179.821425
178,855.000000,-20.188412,-178.078427,855.000000,-20.998908,-178.249677
179,860.000000,-19.577559,-176.578615,860.000000,-20.443345,-176.903536
180,865.000000,-19.934102,-178.100919,865.000000,-20.767570,-178.274733
181,870.000000,-19.225371,-176.683407,870.000000,-20.125278,-177.010136
182,875.000000,-18.232423,-172.511549,875.000000,-19.229469,-173.327560
183,880.000000,-18.200501,-181.240470,880.000000,-19.208051,-181.104592
184,885.000000,-17.853379,-183.246569,885.000000,-18.898433,-182.878208
185,890.000000,-17.715857,-181.893597,890.000000,-18.777550,-181.675659
186,895.000000,-17.640101,-188.206085,895.000000,-18.701902,-187.256410
187,900.000000,-17.684395,-189.433906,900.000000,-18.738183,-188.347870
188,905.000000,-17.035361,-193.443027,905.000000,-18.152830,-191.795155
189,910.000000,-18.089819,-195.176384,910.000000,-19.079815,-193.508566
190,915.000000,-17.998773,-193.807363,915.000000,-19.003848,-192.273599
191,920.000000,-17.878772,-197.966841,920.000000,-18.879617,-195.955716
192,925.000000,-17.237217,-195.565947,925.000000,-18.321873,-193.700414
193,930.000000,-17.437173,-200.543661,930.000000,-18.473836,-198.146115
194,935.000000,-17.612703,-205.535048,935.000000,-18.598718,-202.631604
195,940.000000,-17.623787,-209.142269,940.000000,-18.582207,-205.855558
196,945.000000,-18.666747,-211.243260,945.000000,-19.505199,-208.095697
197,950.000000,-18.756175,-214.795280,950.000000,-19.558261,-211.353068
198,955.000000,-19.057693,-212.089335,955.000000,-19.854150,-208.992500
199,960.000000,-19.281237,-213.765817,960.000000,-20.045482,-210.596334
200,965.000000,-20.036874,-212.328985,965.000000,-20.749056,-209.516959
201,970.000000,-19.061624,-215.907168,970.000000,-19.827616,-212.477519
202,975.000000,-19.495382,-210.735640,975.000000,-20.263323,-207.893656
203,980.000000,-20.281638,-218.717455,980.000000,-20.927871,-215.495112
204,985.000000,-19.266256,-217.680544,985.000000,-20.000063,-214.176133
205,990.000000,-20.457001,-220.297008,990.000000,-21.078018,-217.022134
206,995.000000,-20.089720,-218.110910,995.000000,-20.754999,-214.867361
207,1000.000000,-18.912758,-219.643037,1000.000000,-19.658683,-215.838252
