"Frequency Response"
"Axis-1: 1 - 1000Hz"
"Index","Frequency","Gain","Phase"
"","Hz","dB","deg"
0,1.000000,-10.580113,-17.287630
1,2.000000,-10.850412,-12.483438
2,3.000000,-10.922411,-10.260143
3,4.000000,-10.971202,-8.236948
4,5.000000,-10.987565,-6.395410
5,6.000000,-10.967765,-4.410065
6,7.000000,-10.918505,-2.484026
7,8.000000,-10.818118,-0.788015
8,9.000000,-10.720979,0.852827
9,10.000000,-10.633105,2.170715
10,15.000000,-9.794306,7.688417
11,20.000000,-8.922446,11.188930
12,25.000000,-7.920165,12.115326
13,30.000000,-7.072722,12.232256
14,35.000000,-6.138119,10.763304
15,40.000000,-5.387131,7.723933
16,45.000000,-4.788347,4.038406
17,50.000000,-4.250175,-0.440253
18,55.000000,-4.033092,-1.880440
19,60.000000,-3.459878,-4.593373
20,65.000000,-3.063600,-10.912474
21,70.000000,-3.054003,-15.227595
22,75.000000,-3.000008,-18.712135
23,80.000000,-2.763709,-23.626951
24,85.000000,-2.934140,-27.095627
25,90.000000,-2.799974,-32.260355
26,95.000000,-2.957649,-37.792828
27,100.000000,-3.456445,-41.176464
28,105.000000,-3.947234,-44.056812
29,110.000000,-4.471852,-46.462568
30,115.000000,-5.053847,-46.557445
31,120.000000,-5.443329,-46.058375
32,125.000000,-5.117521,-42.339438
33,130.000000,-4.597088,-43.227827
34,135.000000,-4.124910,-46.099815
35,140.000000,-3.835717,-52.051860
36,145.000000,-4.198755,-59.636017
37,150.000000,-4.691698,-62.142755
38,155.000000,-4.838358,-64.325435
39,160.000000,-5.160288,-66.918502
40,165.000000,-5.720477,-68.071319
41,170.000000,-5.417079,-70.013311
42,175.000000,-5.638250,-73.058839
43,180.000000,-6.406778,-74.001170
44,185.000000,-6.174450,-75.143443
45,190.000000,-6.595898,-77.878740
46,195.000000,-6.558678,-79.138116
47,200.000000,-7.055922,-80.281681
48,205.000000,-7.460397,-82.571215
49,210.000000,-7.530047,-82.601277
50,215.000000,-7.764623,-85.043740
51,220.000000,-7.854866,-85.749549
52,225.000000,-8.433152,-86.752492
53,230.000000,-8.575202,-88.701744
54,235.000000,-8.647459,-89.684393
55,240.000000,-8.927611,-90.151566
56,245.000000,-9.195074,-90.855567
57,250.000000,-9.410938,-91.581573
58,255.000000,-9.586061,-92.013084
59,260.000000,-9.519211,-91.464445
60,265.000000,-10.228698,-92.303449
61,270.000000,-10.335500,-91.027720
62,275.000000,-9.749566,-91.635444
63,280.000000,-9.956322,-94.200694
64,285.000000,-10.704517,-96.740227
65,290.000000,-10.965471,-93.878074
66,295.000000,-10.210532,-96.372655
67,300.000000,-10.855454,-99.221558
68,305.000000,-11.418962,-100.504260
69,310.000000,-11.551052,-97.871973
70,315.000000,-11.465775,-97.206204
71,320.000000,-11.547608,-96.509197
72,325.000000,-11.737238,-97.618260
73,330.000000,-12.118150,-94.008078
74,335.000000,-11.651913,-93.437065
75,340.000000,-11.756600,-95.315353
76,345.000000,-11.666241,-97.120567
77,350.000000,-12.342566,-96.879451
78,355.000000,-11.808667,-92.067401
79,360.000000,-12.042743,-96.879715
80,365.000000,-11.975227,-92.888398
81,370.000000,-11.239570,-89.467593
82,375.000000,-11.419550,-92.506754
83,380.000000,-11.996099,-95.220688
84,385.000000,-11.264981,-95.242703
85,390.000000,-11.112843,-95.618493
86,395.000000,-10.502541,-97.835150
87,400.000000,-11.060373,-98.774821
88,405.000000,-11.514723,-102.017662
89,410.000000,-11.259211,-104.150141
90,415.000000,-11.060253,-104.486541
91,420.000000,-10.945702,-103.796519
92,425.000000,-11.489251,-106.637466
93,430.000000,-11.347389,-109.366442
94,435.000000,-10.950759,-107.454467
95,440.000000,-11.929840,-109.859307
96,445.000000,-11.414950,-114.198041
97,450.000000,-11.498347,-113.926178
98,455.000000,-12.039738,-114.853978
99,460.000000,-11.618292,-116.309698
100,465.000000,-11.703108,-114.768391
101,470.000000,-11.936298,-121.589557
102,475.000000,-11.423786,-112.009134
103,480.000000,-12.714414,-119.563343
104,485.000000,-12.763402,-127.714734
105,490.000000,-11.646892,-122.246056
106,495.000000,-12.083765,-122.409626
107,500.000000,-12.103562,-120.348381
108,505.000000,-12.009683,-118.710034
109,510.000000,-12.410211,-125.123521
110,515.000000,-12.136435,-123.738531
111,520.000000,-13.219881,-128.525121
112,525.000000,-13.169257,-124.340589
113,530.000000,-13.003524,-129.841617
114,535.000000,-12.655357,-129.003649
115,540.000000,-13.179136,-130.206286
116,545.000000,-13.067424,-131.114271
117,550.000000,-12.956513,-128.740371
118,555.000000,-13.178274,-138.425698
119,560.000000,-12.940721,-127.977744
120,565.000000,-13.532921,-135.520502
121,570.000000,-13.340028,-136.806653
122,575.000000,-13.400145,-134.223182
123,580.000000,-13.435800,-132.526960
124,585.000000,-14.216164,-139.390407
125,590.000000,-13.128197,-132.841712
126,595.000000,-14.188544,-135.513108
127,600.000000,-13.880376,-139.655242
128,605.000000,-13.571199,-137.214085
129,610.000000,-14.068294,-144.409648
130,615.000000,-13.699942,-136.531218
131,620.000000,-14.587579,-144.976511
132,625.000000,-14.136623,-143.454982
133,630.000000,-13.929608,-144.190222
134,635.000000,-14.261210,-144.127205
135,640.000000,-14.048606,-143.775706
136,645.000000,-14.281621,-143.026588
137,650.000000,-14.890224,-151.811688
138,655.000000,-14.617607,-149.987664
139,660.000000,-14.370686,-141.518264
140,665.000000,-14.941039,-150.170327
141,670.000000,-15.187495,-145.844525
142,675.000000,-14.781102,-153.132389
143,680.000000,-14.629928,-149.950512
144,685.000000,-14.785077,-153.419801
145,690.000000,-15.226547,-146.273012
146,695.000000,-15.292122,-157.509098
147,700.000000,-15.639161,-156.193121
148,705.000000,-15.143359,-153.163054
149,710.000000,-16.081931,-152.762020
150,715.000000,-16.288235,-152.280783
151,720.000000,-16.413799,-158.457567
152,725.000000,-17.222119,-157.146585
153,730.000000,-16.558673,-150.102207
154,735.000000,-17.054853,-151.356294
155,740.000000,-16.840849,-151.002382
156,745.000000,-16.151865,-147.549792
157,750.000000,-16.260341,-146.699811
158,755.000000,-15.144975,-143.927145
159,760.000000,-14.756633,-149.473721
160,765.000000,-14.265840,-151.302611
161,770.000000,-14.137762,-161.871879
162,775.000000,-14.955932,-162.798383
163,780.000000,-16.229713,-169.877717
164,785.000000,-17.356034,-159.269628
165,790.000000,-17.139373,-148.259186
166,795.000000,-16.158039,-150.935282
167,800.000000,-15.304706,-152.898149
168,805.000000,-15.280392,-159.200881
169,810.000000,-15.238165,-166.581641
170,815.000000,-16.126802,-164.654749
171,820.000000,-17.336784,-172.026112
172,825.000000,-19.716682,-173.443796
173,830.000000,-18.261452,-140.389327
174,835.000000,-17.944082,-149.620506
175,840.000000,-16.155677,-149.504618
176,845.000000,-16.046045,-131.599155
177,850.000000,-16.673452,-140.008808
178,855.000000,-14.981425,-145.305750
179,860.000000,-14.268050,-146.121956
180,865.000000,-13.673685,-143.138882
181,870.000000,-13.326324,-155.246796
182,875.000000,-14.245543,-148.345013
183,880.000000,-13.656290,-147.867322
184,885.000000,-12.773113,-159.005720
185,890.000000,-13.125359,-151.503284
186,895.000000,-12.237191,-162.880856
187,900.000000,-12.474286,-156.063234
188,905.000000,-12.165038,-166.503483
189,910.000000,-12.168358,-166.662545
190,915.000000,-12.087496,-169.190911
191,920.000000,-12.542878,-170.777454
192,925.000000,-12.522589,-173.236920
193,930.000000,-12.439619,-172.687961
194,935.000000,-12.237822,-169.992234
195,940.000000,-12.062908,-177.614465
196,945.000000,-11.337370,-182.963217
197,950.000000,-12.639436,-186.803846
198,955.000000,-12.482705,-184.218197
199,960.000000,-12.901906,-192.199574
200,965.000000,-13.257235,-192.355532
201,970.000000,-14.520362,-192.037842
202,975.000000,-13.060648,-190.300269
203,980.000000,-14.182640,-187.229752
204,985.000000,-14.358985,-193.505094
205,990.000000,-14.410628,-196.125755
206,995.000000,-14.463724,-197.563013
207,1000.000000,-14.475913,-193.829067
